Data from Transmission_10-56-02-837.txt Node
Date: Fri Oct 05 10:56:02 CEST 2018
User: LCAV
Spectrometer: FLMS13634
Trigger mode: 0
Integration Time (sec): 1.000000E-3
Scans to average: 1000
Electric dark correction enabled: true
Nonlinearity correction enabled: true
Boxcar width: 0
XAxis mode: Wavelengths
Number of Pixels in Spectrum: 2048
>>>>>Begin Spectral Data<<<<<
188.797	76.03
189.264	76.03
189.73	76.03
190.196	-82.87
190.663	16.89
191.129	-9.16
191.595	-2663.4
192.062	-260.32
192.528	52.86
192.994	50.69
193.46	47.25
193.926	-474.98
194.392	129.65
194.858	502.63
195.324	166.88
195.79	24.68
196.255	35.41
196.721	372
197.187	99.83
197.652	-2436.18
198.118	-13.81
198.584	504.14
199.049	76.48
199.515	69.69
199.98	69.34
200.445	68.4
200.911	70.02
201.376	68.47
201.841	70.47
202.307	70.33
202.772	68.14
203.237	69.46
203.702	69.47
204.167	71.4
204.632	71.58
205.097	70.78
205.562	69.7
206.027	73.08
206.491	70.58
206.956	74.61
207.421	70.5
207.886	70.77
208.35	71.6
208.815	70.63
209.279	72.27
209.744	72.19
210.208	71.98
210.673	73.2
211.137	72.24
211.601	72.79
212.065	72.93
212.53	72.74
212.994	72.67
213.458	74.34
213.922	73.91
214.386	73.83
214.85	74.43
215.314	72.6
215.778	73.08
216.242	71.73
216.706	72.98
217.169	73.4
217.633	73.72
218.097	73.24
218.56	75.29
219.024	73.55
219.487	72.83
219.951	75.52
220.414	73.49
220.878	74.06
221.341	73.39
221.804	73.56
222.268	72.17
222.731	72.98
223.194	73.86
223.657	74.46
224.12	74.09
224.583	75.21
225.046	74.39
225.509	74.08
225.972	71.85
226.435	75.4
226.898	72.93
227.361	73.4
227.823	74.42
228.286	75.08
228.749	73.21
229.211	73.43
229.674	71.01
230.136	72.49
230.599	73.95
231.061	73.28
231.523	74.92
231.986	72.88
232.448	73.62
232.91	73.82
233.372	74.23
233.834	73.91
234.296	73.38
234.758	73.89
235.22	74.23
235.682	72.29
236.144	72.17
236.606	72.99
237.068	70.46
237.53	75.27
237.991	71.91
238.453	72.27
238.915	70.68
239.376	73.41
239.838	74.58
240.299	71.3
240.76	72.77
241.222	74.03
241.683	72.11
242.144	72.02
242.606	73.45
243.067	72.84
243.528	72.49
243.989	72.85
244.45	72.44
244.911	73.46
245.372	72.53
245.833	72.96
246.294	73.48
246.755	74.29
247.216	73.39
247.676	73.06
248.137	73.96
248.598	73.68
249.058	73.34
249.519	73.94
249.979	73.21
250.44	72.31
250.9	73.73
251.361	76.02
251.821	71.82
252.281	73.8
252.741	73.81
253.202	71.36
253.662	72.68
254.122	72.04
254.582	74.15
255.042	73.45
255.502	72.93
255.962	73.21
256.421	74.79
256.881	72.66
257.341	73.36
257.801	72.03
258.26	73.19
258.72	72.5
259.18	73.85
259.639	73.83
260.099	73.18
260.558	72.67
261.017	72.99
261.477	71.14
261.936	72.31
262.395	72.96
262.855	73.75
263.314	71.87
263.773	73.8
264.232	73.52
264.691	73.72
265.15	75.11
265.609	73.05
266.068	73.89
266.526	73.37
266.985	72.23
267.444	72.82
267.903	72.93
268.361	74.21
268.82	72.67
269.278	73.1
269.737	73.02
270.195	73.23
270.654	72.2
271.112	71.98
271.57	71.43
272.029	72.28
272.487	71.95
272.945	73.97
273.403	72.19
273.861	71.25
274.319	72.72
274.777	74.12
275.235	74.91
275.693	72.28
276.151	72.11
276.609	73.04
277.067	72.55
277.524	72.22
277.982	71.63
278.44	74.04
278.897	74.38
279.355	72.13
279.812	72.21
280.27	72.67
280.727	73.28
281.184	72.3
281.642	72.91
282.099	74.16
282.556	71.53
283.013	73.61
283.47	71.7
283.927	72.12
284.384	71.69
284.841	72.68
285.298	71.18
285.755	74.3
286.212	72.31
286.668	74.28
287.125	71.83
287.582	74.21
288.038	71.23
288.495	74.79
288.952	72.09
289.408	72.9
289.865	71.5
290.321	71.9
290.777	71.18
291.234	72.47
291.69	73.07
292.146	72.71
292.602	72.4
293.058	73.37
293.514	73.31
293.97	72.27
294.426	75.05
294.882	72.06
295.338	73.46
295.794	72.75
296.25	71.6
296.705	72.32
297.161	74.27
297.617	73.37
298.072	73.34
298.528	72.13
298.983	72.87
299.439	74.3
299.894	72.16
300.349	74.74
300.805	70.82
301.26	72.08
301.715	73.93
302.17	72.44
302.625	72.94
303.08	74.82
303.535	73.06
303.99	71.45
304.445	73.84
304.9	73.91
305.355	71.81
305.81	74.18
306.264	72.19
306.719	71.34
307.174	72.68
307.628	73.86
308.083	71.32
308.537	71.09
308.992	72.94
309.446	72.36
309.901	73.01
310.355	73.18
310.809	72.94
311.263	74.04
311.717	69.61
312.172	73.46
312.626	71.5
313.08	71.18
313.534	71.4
313.987	73.5
314.441	72.69
314.895	72.32
315.349	72.26
315.803	73.49
316.256	74.49
316.71	73.14
317.164	72.89
317.617	71.85
318.071	71.29
318.524	74.71
318.977	71.31
319.431	73.43
319.884	72.01
320.337	72.83
320.79	71.97
321.244	72.58
321.697	72.4
322.15	71.87
322.603	71.45
323.056	72.44
323.509	71.65
323.961	75.29
324.414	71.64
324.867	71.99
325.32	70.52
325.772	73.18
326.225	71.33
326.677	73.46
327.13	72.23
327.582	72.93
328.035	74.16
328.487	71.47
328.94	71.02
329.392	71.51
329.844	71.55
330.296	72.29
330.748	73.31
331.2	71.84
331.653	69.85
332.105	70.71
332.556	73.05
333.008	73.18
333.46	71.94
333.912	72.58
334.364	72.08
334.815	71.52
335.267	70.67
335.719	71.84
336.17	75
336.622	73.86
337.073	72.62
337.525	72.73
337.976	71.72
338.427	72.38
338.878	71.17
339.33	71.87
339.781	73.96
340.232	74.65
340.683	70.56
341.134	71.87
341.585	72.21
342.036	70.73
342.487	70.41
342.938	73.49
343.388	71.33
343.839	71.07
344.29	72.09
344.74	69.31
345.191	69.3
345.642	67.28
346.092	69.31
346.542	69.16
346.993	67.91
347.443	64.91
347.894	66.64
348.344	67.28
348.794	66.68
349.244	63.04
349.694	62.04
350.144	60.71
350.594	60.76
351.044	58.61
351.494	58.55
351.944	58.37
352.394	56.05
352.843	55.23
353.293	53.45
353.743	53.32
354.192	50.39
354.642	49.34
355.091	48.54
355.541	46.94
355.99	46.16
356.44	45.92
356.889	45.41
357.338	43.84
357.787	43.39
358.237	42.7
358.686	41.78
359.135	40.17
359.584	40.22
360.033	39.34
360.482	39.72
360.931	38.27
361.379	38.22
361.828	37.76
362.277	37.81
362.726	36.98
363.174	37.19
363.623	36.93
364.071	37.19
364.52	36.76
364.968	36.86
365.417	37.1
365.865	36.79
366.313	36.9
366.761	36.81
367.21	36.69
367.658	36.92
368.106	37.37
368.554	37.37
369.002	37.54
369.45	37.77
369.898	38.36
370.346	38.21
370.793	38.61
371.241	38.93
371.689	39.54
372.136	39.45
372.584	39.62
373.032	40
373.479	40.1
373.926	40.28
374.374	41.01
374.821	41.48
375.268	41.69
375.716	42.15
376.163	42.46
376.61	42.64
377.057	43.18
377.504	43.16
377.951	43.09
378.398	43.47
378.845	43.71
379.292	43.88
379.739	44.08
380.185	44.33
380.632	44.84
381.079	45.05
381.525	45.45
381.972	45.82
382.418	45.83
382.865	45.97
383.311	46.13
383.758	46.34
384.204	46.48
384.65	46.59
385.096	46.83
385.543	47.14
385.989	47.5
386.435	47.86
386.881	48.21
387.327	48.41
387.773	48.71
388.218	48.99
388.664	49.09
389.11	49.26
389.556	49.49
390.001	49.58
390.447	49.64
390.893	49.9
391.338	50.12
391.784	50.41
392.229	50.76
392.674	51.15
393.12	51.41
393.565	51.81
394.01	52.2
394.455	52.37
394.9	52.49
395.345	52.79
395.79	52.84
396.235	53.01
396.68	53.1
397.125	53.28
397.57	53.47
398.015	53.67
398.459	53.98
398.904	54.25
399.349	54.64
399.793	55
400.238	55.33
400.682	55.6
401.127	55.75
401.571	56
402.015	56.12
402.46	56.21
402.904	56.22
403.348	56.28
403.792	56.34
404.236	56.4
404.68	56.62
405.124	56.8
405.568	57.07
406.012	57.28
406.456	57.54
406.899	57.98
407.343	58.15
407.787	58.28
408.23	58.48
408.674	58.6
409.117	58.62
409.561	58.59
410.004	58.56
410.448	58.59
410.891	58.59
411.334	58.72
411.777	58.84
412.221	58.94
412.664	59.19
413.107	59.41
413.55	59.67
413.993	59.93
414.436	60.11
414.878	60.21
415.321	60.33
415.764	60.49
416.207	60.48
416.649	60.39
417.092	60.35
417.534	60.36
417.977	60.33
418.419	60.25
418.862	60.32
419.304	60.42
419.746	60.57
420.189	60.72
420.631	60.95
421.073	61.15
421.515	61.42
421.957	61.62
422.399	61.73
422.841	61.84
423.283	61.96
423.725	61.94
424.167	61.91
424.608	61.87
425.05	61.7
425.492	61.61
425.933	61.63
426.375	61.6
426.816	61.76
427.258	61.74
427.699	61.98
428.14	62.06
428.582	62.28
429.023	62.52
429.464	62.61
429.905	62.82
430.346	63
430.787	63.03
431.228	63.06
431.669	63.05
432.11	62.91
432.551	62.86
432.992	62.72
433.432	62.68
433.873	62.55
434.314	62.5
434.754	62.49
435.195	62.54
435.635	62.62
436.076	62.81
436.516	62.91
436.956	63.02
437.397	63.27
437.837	63.33
438.277	63.56
438.717	63.62
439.157	63.64
439.597	63.66
440.037	63.63
440.477	63.54
440.917	63.45
441.357	63.29
441.796	63.22
442.236	63.1
442.676	63.13
443.115	63.07
443.555	63.06
443.994	63.19
444.434	63.32
444.873	63.42
445.313	63.62
445.752	63.75
446.191	63.87
446.63	64.07
447.07	64.23
447.509	64.3
447.948	64.33
448.387	64.37
448.826	64.33
449.264	64.26
449.703	64.25
450.142	64.13
450.581	64.06
451.019	64.05
451.458	63.95
451.897	64.06
452.335	64.08
452.774	64.17
453.212	64.27
453.65	64.49
454.089	64.65
454.527	64.83
454.965	65
455.403	65.22
455.842	65.34
456.28	65.48
456.718	65.56
457.156	65.62
457.593	65.64
458.031	65.6
458.469	65.53
458.907	65.43
459.345	65.33
459.782	65.25
460.22	65.15
460.657	65.13
461.095	65.17
461.532	65.18
461.97	65.23
462.407	65.35
462.844	65.49
463.282	65.67
463.719	65.77
464.156	65.95
464.593	66.09
465.03	66.24
465.467	66.32
465.904	66.46
466.341	66.44
466.778	66.48
467.214	66.48
467.651	66.49
468.088	66.36
468.524	66.29
468.961	66.13
469.397	66.09
469.834	66.01
470.27	65.95
470.707	65.97
471.143	65.92
471.579	66.06
472.015	66.12
472.451	66.24
472.888	66.38
473.324	66.57
473.76	66.68
474.196	66.83
474.631	66.98
475.067	67.17
475.503	67.31
475.939	67.37
476.374	67.4
476.81	67.45
477.246	67.44
477.681	67.45
478.117	67.42
478.552	67.31
478.987	67.23
479.423	67.12
479.858	67.06
480.293	67.06
480.728	67.01
481.163	67.1
481.599	67.11
482.034	67.2
482.468	67.31
482.903	67.43
483.338	67.53
483.773	67.66
484.208	67.8
484.642	67.93
485.077	68.01
485.512	68.17
485.946	68.21
486.381	68.21
486.815	68.22
487.249	68.15
487.684	68.05
488.118	67.95
488.552	67.8
488.986	67.64
489.421	67.5
489.855	67.31
490.289	67.16
490.723	66.99
491.156	66.86
491.59	66.81
492.024	66.72
492.458	66.66
492.892	66.64
493.325	66.64
493.759	66.62
494.192	66.7
494.626	66.72
495.059	66.78
495.493	66.81
495.926	66.78
496.359	66.85
496.792	66.8
497.226	66.76
497.659	66.66
498.092	66.61
498.525	66.51
498.958	66.36
499.391	66.2
499.824	66.02
500.256	65.82
500.689	65.7
501.122	65.5
501.554	65.35
501.987	65.2
502.42	65.11
502.852	65.01
503.284	64.96
503.717	64.89
504.149	64.9
504.581	64.93
505.014	64.93
505.446	64.94
505.878	65
506.31	65.04
506.742	65.06
507.174	65.14
507.606	65.18
508.038	65.16
508.469	65.1
508.901	65.08
509.333	65.03
509.765	64.94
510.196	64.83
510.628	64.68
511.059	64.55
511.491	64.41
511.922	64.2
512.353	64.06
512.785	63.84
513.216	63.66
513.647	63.51
514.078	63.37
514.509	63.21
514.94	63.1
515.371	63.01
515.802	62.94
516.233	62.87
516.664	62.87
517.094	62.81
517.525	62.77
517.956	62.72
518.386	62.71
518.817	62.68
519.247	62.62
519.678	62.58
520.108	62.52
520.538	62.44
520.969	62.29
521.399	62.17
521.829	62.02
522.259	61.86
522.689	61.73
523.119	61.52
523.549	61.37
523.979	61.16
524.409	60.95
524.839	60.77
525.268	60.61
525.698	60.44
526.128	60.31
526.557	60.17
526.987	60.04
527.416	60
527.845	59.91
528.275	59.85
528.704	59.85
529.133	59.85
529.563	59.86
529.992	59.91
530.421	59.99
530.85	60.05
531.279	60.11
531.708	60.18
532.137	60.26
532.565	60.34
532.994	60.43
533.423	60.52
533.852	60.6
534.28	60.68
534.709	60.72
535.137	60.8
535.566	60.86
535.994	60.9
536.422	60.91
536.851	60.94
537.279	60.98
537.707	61.03
538.135	61.09
538.563	61.14
538.991	61.25
539.419	61.34
539.847	61.42
540.275	61.59
540.703	61.77
541.131	61.92
541.558	62.1
541.986	62.29
542.413	62.54
542.841	62.76
543.268	63.02
543.696	63.31
544.123	63.61
544.551	63.82
544.978	64.12
545.405	64.39
545.832	64.67
546.259	64.9
546.686	65.17
547.113	65.41
547.54	65.58
547.967	65.83
548.394	65.98
548.821	66.11
549.248	66.3
549.674	66.37
550.101	66.47
550.527	66.52
550.954	66.59
551.38	66.67
551.807	66.69
552.233	66.77
552.659	66.85
553.086	66.88
553.512	66.95
553.938	66.97
554.364	67.04
554.79	67.08
555.216	67.17
555.642	67.27
556.068	67.34
556.494	67.42
556.919	67.5
557.345	67.59
557.771	67.61
558.196	67.75
558.622	67.75
559.047	67.8
559.473	67.81
559.898	67.8
560.323	67.82
560.749	67.78
561.174	67.69
561.599	67.58
562.024	67.5
562.449	67.34
562.874	67.16
563.299	66.94
563.724	66.75
564.149	66.51
564.574	66.31
564.998	66.06
565.423	65.84
565.848	65.58
566.272	65.33
566.697	65.08
567.121	64.86
567.545	64.57
567.97	64.34
568.394	64.12
568.818	63.88
569.242	63.66
569.667	63.44
570.091	63.25
570.515	63.04
570.939	62.88
571.363	62.74
571.786	62.54
572.21	62.38
572.634	62.26
573.058	62.16
573.481	62.04
573.905	61.92
574.328	61.83
574.752	61.7
575.175	61.61
575.599	61.48
576.022	61.37
576.445	61.27
576.868	61.12
577.291	61.01
577.715	60.9
578.138	60.76
578.561	60.65
578.983	60.58
579.406	60.47
579.829	60.35
580.252	60.24
580.675	60.19
581.097	60.07
581.52	60.03
581.942	59.97
582.365	59.97
582.787	59.93
583.21	59.95
583.632	59.95
584.054	59.99
584.476	60.01
584.899	60.1
585.321	60.19
585.743	60.3
586.165	60.45
586.587	60.55
587.009	60.75
587.43	60.94
587.852	61.13
588.274	61.34
588.695	61.53
589.117	61.72
589.539	61.95
589.96	62.19
590.382	62.47
590.803	62.69
591.224	62.87
591.646	63.14
592.067	63.33
592.488	63.56
592.909	63.74
593.33	63.89
593.751	64.08
594.172	64.21
594.593	64.37
595.014	64.54
595.434	64.67
595.855	64.75
596.276	64.84
596.696	64.88
597.117	64.98
597.538	65.04
597.958	65.05
598.378	65.1
598.799	65.14
599.219	65.22
599.639	65.25
600.059	65.31
600.479	65.3
600.9	65.28
601.32	65.33
601.74	65.31
602.159	65.36
602.579	65.38
602.999	65.39
603.419	65.42
603.838	65.41
604.258	65.42
604.678	65.42
605.097	65.39
605.517	65.28
605.936	65.21
606.355	65.11
606.775	65.05
607.194	64.95
607.613	64.77
608.032	64.64
608.451	64.44
608.87	64.19
609.289	63.96
609.708	63.66
610.127	63.41
610.546	63.05
610.964	62.72
611.383	62.37
611.802	62.01
612.22	61.68
612.639	61.24
613.057	60.87
613.475	60.5
613.894	60.11
614.312	59.72
614.73	59.29
615.149	58.88
615.567	58.49
615.985	58.07
616.403	57.7
616.821	57.3
617.239	56.92
617.656	56.55
618.074	56.16
618.492	55.83
618.91	55.46
619.327	55.12
619.745	54.8
620.162	54.47
620.58	54.18
620.997	53.88
621.414	53.58
621.832	53.32
622.249	53.06
622.666	52.81
623.083	52.59
623.5	52.34
623.917	52.12
624.334	51.86
624.751	51.66
625.168	51.49
625.585	51.29
626.001	51.12
626.418	51
626.835	50.83
627.251	50.69
627.668	50.57
628.084	50.43
628.5	50.3
628.917	50.21
629.333	50.17
629.749	50.08
630.165	50.02
630.581	50
630.998	49.97
631.414	49.95
631.829	49.94
632.245	49.94
632.661	49.99
633.077	49.99
633.493	50.11
633.908	50.16
634.324	50.27
634.739	50.36
635.155	50.54
635.57	50.67
635.986	50.84
636.401	51.04
636.816	51.24
637.231	51.49
637.647	51.73
638.062	52
638.477	52.29
638.892	52.6
639.307	52.92
639.721	53.27
640.136	53.64
640.551	54.02
640.966	54.41
641.38	54.83
641.795	55.26
642.209	55.63
642.624	56.16
643.038	56.63
643.453	57.15
643.867	57.65
644.281	58.17
644.695	58.64
645.11	59.16
645.524	59.69
645.938	60.2
646.352	60.75
646.765	61.33
647.179	61.83
647.593	62.35
648.007	62.83
648.421	63.41
648.834	63.93
649.248	64.48
649.661	64.97
650.075	65.46
650.488	65.9
650.901	66.33
651.315	66.88
651.728	67.35
652.141	67.87
652.554	68.26
652.967	68.7
653.38	69.14
653.793	69.58
654.206	69.99
654.619	70.39
655.032	70.79
655.444	71.22
655.857	71.6
656.27	72.04
656.682	72.46
657.095	72.93
657.507	73.3
657.919	73.69
658.332	74.1
658.744	74.47
659.156	74.91
659.568	75.35
659.98	75.78
660.392	76.16
660.804	76.55
661.216	76.93
661.628	77.37
662.04	77.81
662.452	78.26
662.863	78.65
663.275	79.03
663.687	79.38
664.098	79.74
664.51	80.12
664.921	80.44
665.332	80.81
665.744	81.1
666.155	81.4
666.566	81.63
666.977	81.93
667.388	82.19
667.799	82.43
668.21	82.65
668.621	82.9
669.032	83.01
669.443	83.21
669.853	83.34
670.264	83.41
670.675	83.52
671.085	83.67
671.496	83.75
671.906	83.77
672.316	83.86
672.727	83.87
673.137	83.89
673.547	83.94
673.957	83.97
674.367	83.97
674.777	84.03
675.187	84.07
675.597	84.07
676.007	84.1
676.417	84.06
676.827	84.1
677.236	84.1
677.646	84.19
678.056	84.26
678.465	84.37
678.875	84.42
679.284	84.44
679.693	84.51
680.103	84.62
680.512	84.73
680.921	84.8
681.33	84.9
681.739	85.01
682.148	85.08
682.557	85.21
682.966	85.33
683.375	85.43
683.784	85.64
684.192	85.71
684.601	85.89
685.009	85.93
685.418	86.1
685.826	86.21
686.235	86.34
686.643	86.42
687.052	86.56
687.46	86.64
687.868	86.65
688.276	86.76
688.684	86.77
689.092	86.87
689.5	86.81
689.908	86.9
690.316	86.92
690.724	86.92
691.131	86.87
691.539	86.83
691.947	86.76
692.354	86.76
692.762	86.76
693.169	86.66
693.577	86.62
693.984	86.56
694.391	86.45
694.798	86.4
695.205	86.37
695.613	86.23
696.02	86.19
696.427	86.18
696.833	86.15
697.24	86.01
697.647	85.91
698.054	85.88
698.461	85.83
698.867	85.85
699.274	85.8
699.68	85.85
700.087	85.86
700.493	85.8
700.899	85.83
701.306	85.83
701.712	85.85
702.118	85.86
702.524	85.92
702.93	85.97
703.336	86.01
703.742	86.05
704.148	86.18
704.554	86.28
704.96	86.39
705.365	86.46
705.771	86.55
706.176	86.59
706.582	86.68
706.987	86.76
707.393	86.86
707.798	86.96
708.203	87.01
708.609	87.1
709.014	87.16
709.419	87.29
709.824	87.34
710.229	87.41
710.634	87.45
711.039	87.51
711.444	87.5
711.848	87.52
712.253	87.51
712.658	87.57
713.062	87.57
713.467	87.54
713.871	87.43
714.276	87.47
714.68	87.47
715.084	87.41
715.489	87.32
715.893	87.26
716.297	87.23
716.701	87.19
717.105	87.04
717.509	86.96
717.913	86.89
718.317	86.89
718.72	86.84
719.124	86.65
719.528	86.7
719.931	86.59
720.335	86.46
720.738	86.47
721.142	86.38
721.545	86.23
721.948	86.28
722.352	86.27
722.755	86.26
723.158	86.24
723.561	86.19
723.964	86.21
724.367	86.24
724.77	86.25
725.173	86.26
725.575	86.31
725.978	86.28
726.381	86.39
726.783	86.42
727.186	86.52
727.588	86.49
727.991	86.58
728.393	86.68
728.795	86.74
729.198	86.79
729.6	86.85
730.002	86.93
730.404	87.03
730.806	87.09
731.208	87.24
731.61	87.27
732.012	87.43
732.413	87.44
732.815	87.54
733.217	87.52
733.618	87.62
734.02	87.73
734.421	87.73
734.823	87.79
735.224	87.76
735.626	87.85
736.027	87.84
736.428	87.91
736.829	87.85
737.23	87.83
737.631	87.87
738.032	87.85
738.433	87.87
738.834	87.82
739.235	87.79
739.635	87.7
740.036	87.62
740.436	87.57
740.837	87.52
741.237	87.47
741.638	87.44
742.038	87.28
742.438	87.22
742.839	87.09
743.239	86.98
743.639	86.93
744.039	86.86
744.439	86.87
744.839	86.7
745.239	86.73
745.639	86.57
746.038	86.51
746.438	86.36
746.838	86.34
747.237	86.31
747.637	86.33
748.036	86.21
748.436	86.2
748.835	86.15
749.234	86.15
749.634	86.13
750.033	86.14
750.432	86.09
750.831	86.15
751.23	86.16
751.629	86.17
752.028	86.23
752.426	86.23
752.825	86.27
753.224	86.27
753.622	86.28
754.021	86.34
754.42	86.39
754.818	86.42
755.216	86.49
755.615	86.53
756.013	86.6
756.411	86.64
756.809	86.76
757.207	86.73
757.605	86.79
758.003	86.95
758.401	86.93
758.799	87.02
759.197	87.17
759.595	87.15
759.992	87.26
760.39	87.2
760.788	87.3
761.185	87.29
761.582	87.38
761.98	87.37
762.377	87.37
762.774	87.44
763.172	87.46
763.569	87.41
763.966	87.47
764.363	87.46
764.76	87.46
765.157	87.44
765.554	87.45
765.95	87.35
766.347	87.31
766.744	87.27
767.14	87.2
767.537	87.17
767.933	87.06
768.33	87.04
768.726	87.01
769.122	86.81
769.519	86.83
769.915	86.7
770.311	86.59
770.707	86.61
771.103	86.54
771.499	86.52
771.895	86.39
772.291	86.38
772.686	86.32
773.082	86.21
773.478	86.12
773.873	86.05
774.269	86
774.664	85.95
775.06	85.88
775.455	85.83
775.85	85.88
776.245	85.87
776.64	85.82
777.036	85.75
777.431	85.71
777.826	85.74
778.22	85.78
778.615	85.77
779.01	85.8
779.405	85.78
779.8	85.78
780.194	85.81
780.589	85.8
780.983	85.81
781.378	85.8
781.772	85.9
782.166	85.97
782.561	85.98
782.955	86.1
783.349	86.11
783.743	86.03
784.137	86.16
784.531	86.17
784.925	86.17
785.319	86.26
785.712	86.32
786.106	86.46
786.5	86.46
786.893	86.52
787.287	86.52
787.68	86.61
788.074	86.62
788.467	86.73
788.86	86.76
789.253	86.84
789.647	86.87
790.04	86.88
790.433	86.95
790.826	86.97
791.219	86.96
791.612	86.98
792.004	87.05
792.397	86.97
792.79	86.92
793.182	87
793.575	86.98
793.967	87
794.36	86.97
794.752	86.97
795.144	86.97
795.537	86.92
795.929	86.81
796.321	86.85
796.713	86.81
797.105	86.7
797.497	86.67
797.889	86.62
798.281	86.53
798.672	86.45
799.064	86.47
799.456	86.26
799.847	86.29
800.239	86.21
800.63	86.1
801.022	86.11
801.413	86.01
801.804	85.87
802.196	85.78
802.587	85.81
802.978	85.78
803.369	85.67
803.76	85.65
804.151	85.56
804.542	85.59
804.932	85.45
805.323	85.41
805.714	85.51
806.104	85.45
806.495	85.53
806.885	85.47
807.276	85.49
807.666	85.49
808.056	85.52
808.447	85.36
808.837	85.43
809.227	85.38
809.617	85.5
810.007	85.54
810.397	85.65
810.787	85.48
811.177	85.5
811.566	85.69
811.956	85.67
812.346	85.77
812.735	85.72
813.125	85.78
813.514	85.88
813.904	85.92
814.293	86.06
814.682	85.96
815.071	86.02
815.46	86.14
815.85	86.14
816.239	86.24
816.627	86.4
817.016	86.37
817.405	86.44
817.794	86.42
818.183	86.46
818.571	86.49
818.96	86.56
819.348	86.64
819.737	86.7
820.125	86.76
820.514	86.74
820.902	86.8
821.29	86.81
821.678	86.77
822.066	86.81
822.454	86.81
822.842	86.87
823.23	86.8
823.618	86.92
824.006	86.74
824.394	86.83
824.781	86.78
825.169	86.91
825.556	86.84
825.944	86.78
826.331	86.72
826.719	86.84
827.106	86.72
827.493	86.6
827.88	86.55
828.267	86.51
828.654	86.55
829.041	86.52
829.428	86.26
829.815	86.3
830.202	86.33
830.589	86.27
830.975	86.19
831.362	85.99
831.748	86.09
832.135	85.88
832.521	85.87
832.908	85.96
833.294	85.85
833.68	85.82
834.066	85.86
834.453	85.66
834.839	85.66
835.225	85.59
835.61	85.59
835.996	85.53
836.382	85.45
836.768	85.34
837.154	85.19
837.539	85.23
837.925	85.23
838.31	85.18
838.696	85.17
839.081	85.14
839.466	85.24
839.852	85.11
840.237	85.09
840.622	85.12
841.007	85.09
841.392	85.24
841.777	85.22
842.162	85.09
842.547	85.34
842.931	85.42
843.316	85.32
843.701	85.18
844.085	85.33
844.47	85.37
844.854	85.37
845.238	85.54
845.623	85.5
846.007	85.56
846.391	85.47
846.775	85.59
847.159	85.61
847.543	85.65
847.927	85.7
848.311	85.83
848.695	85.81
849.079	85.93
849.462	85.97
849.846	85.93
850.23	86.09
850.613	86.12
850.997	86.17
851.38	86.17
851.763	86.29
852.147	86.28
852.53	86.3
852.913	86.42
853.296	86.29
853.679	86.31
854.062	86.34
854.445	86.51
854.828	86.47
855.21	86.41
855.593	86.41
855.976	86.55
856.358	86.46
856.741	86.44
857.123	86.33
857.506	86.47
857.888	86.4
858.27	86.37
858.652	86.65
859.034	86.44
859.416	86.47
859.798	86.34
860.18	86.5
860.562	86.43
860.944	86.31
861.326	86.45
861.708	86.31
862.089	86.3
862.471	86.22
862.852	86.3
863.234	86.18
863.615	86.14
863.996	86.19
864.378	86.03
864.759	86.04
865.14	86.06
865.521	85.83
865.902	85.84
866.283	85.85
866.664	85.6
867.045	85.54
867.425	85.57
867.806	85.59
868.187	85.4
868.567	85.56
868.948	85.38
869.328	85.48
869.708	85.21
870.089	85.17
870.469	85.15
870.849	85.17
871.229	85.3
871.609	85.25
871.989	85.23
872.369	85.12
872.749	85.08
873.129	84.95
873.509	84.99
873.888	85.11
874.268	85.12
874.647	84.94
875.027	84.98
875.406	85.05
875.786	84.95
876.165	85.01
876.544	85.02
876.923	84.9
877.303	84.96
877.682	85.01
878.061	84.92
878.439	85.22
878.818	85
879.197	85.2
879.576	85.23
879.955	85.28
880.333	85.02
880.712	85.29
881.09	85.18
881.469	85.27
881.847	85.28
882.225	85.34
882.603	85.27
882.982	85.42
883.36	85.53
883.738	85.4
884.116	85.49
884.494	85.72
884.871	85.54
885.249	85.67
885.627	85.52
886.004	85.71
886.382	85.72
886.76	85.92
887.137	85.81
887.514	85.95
887.892	85.9
888.269	86.1
888.646	86.06
889.023	86.11
889.4	86.17
889.777	86.24
890.154	86.32
890.531	86.23
890.908	86.23
891.285	86.19
891.662	86.12
892.038	86.09
892.415	86.28
892.791	86.45
893.168	86.46
893.544	86.54
893.92	86.25
894.297	86.43
894.673	86.39
895.049	86.24
895.425	86.41
895.801	86.37
896.177	86.23
896.553	86.08
896.929	86.37
897.304	86.42
897.68	86.26
898.056	86.2
898.431	86.11
898.807	86.28
899.182	86.13
899.558	86.06
899.933	85.96
900.308	86.03
900.683	85.96
901.058	85.94
901.433	86.02
901.808	85.8
902.183	85.66
902.558	85.76
902.933	85.57
903.308	85.56
903.682	85.65
904.057	85.37
904.431	85.53
904.806	85.42
905.18	85.27
905.555	85.14
905.929	85.34
906.303	85.3
906.677	85.04
907.051	85.09
907.425	85.32
907.799	85.22
908.173	85
908.547	84.94
908.921	84.99
909.294	84.89
909.668	84.75
910.042	85.15
910.415	84.92
910.788	84.93
911.162	84.98
911.535	85.04
911.908	84.68
912.282	84.58
912.655	84.97
913.028	84.69
913.401	84.82
913.774	84.87
914.147	84.69
914.519	84.57
914.892	84.84
915.265	84.76
915.637	84.94
916.01	84.86
916.382	84.81
916.755	84.54
917.127	84.62
917.499	84.59
917.872	84.9
918.244	84.99
918.616	85
918.988	85.07
919.36	85.08
919.732	85.01
920.103	85.12
920.475	85.18
920.847	84.63
921.219	85.14
921.59	84.99
921.962	85.08
922.333	85.08
922.704	85.19
923.076	85.09
923.447	85.17
923.818	85.16
924.189	85.45
924.56	85.17
924.931	85.54
925.302	85.15
925.673	85.7
926.044	85.55
926.415	85.28
926.785	85.52
927.156	85.6
927.526	85.67
927.897	85.63
928.267	85.88
928.638	86.2
929.008	85.46
929.378	85.99
929.748	85.4
930.118	85.9
930.488	85.83
930.858	85.9
931.228	85.8
931.598	85.93
931.968	86.16
932.338	85.79
932.707	85.65
933.077	85.75
933.446	86.18
933.816	85.78
934.185	85.7
934.554	86.23
934.924	86
935.293	85.71
935.662	85.61
936.031	85.55
936.4	85.75
936.769	85.88
937.138	86.11
937.506	85.89
937.875	85.23
938.244	85.08
938.612	85.91
938.981	85.64
939.349	84.97
939.718	85.4
940.086	85.6
940.454	85.16
940.823	84.82
941.191	84.86
941.559	85.24
941.927	85.05
942.295	85.17
942.663	85.26
943.03	85.55
943.398	84.66
943.766	84.23
944.133	84.2
944.501	84.32
944.868	85.26
945.236	84.88
945.603	84.87
945.97	84.76
946.338	84.52
946.705	85.27
947.072	84.01
947.439	84.25
947.806	84.8
948.173	83.95
948.54	84.26
948.906	84.59
949.273	84.31
949.64	83.68
950.006	84.54
950.373	83.94
950.739	84.1
951.106	84.13
951.472	84.38
951.838	84.53
952.204	84.34
952.57	84.37
952.936	84.31
953.302	84.36
953.668	84.15
954.034	83.54
954.4	84.77
954.766	84.61
955.131	83.96
955.497	84.17
955.862	84.16
956.228	84.41
956.593	84.31
956.959	84.06
957.324	84.28
957.689	84.23
958.054	84.3
958.419	85.04
958.784	84.07
959.149	84.58
959.514	83.7
959.879	83.66
960.244	84.47
960.608	85.31
960.973	84.22
961.337	85.02
961.702	84.87
962.066	84.73
962.431	84.95
962.795	84.24
963.159	84.96
963.523	85.01
963.887	85.21
964.251	83.95
964.615	85.33
964.979	85.09
965.343	84.85
965.707	85.06
966.07	84.51
966.434	85.42
966.797	84.67
967.161	85.6
967.524	85.16
967.888	84.4
968.251	85.24
968.614	85.03
968.977	84.94
969.34	85.58
969.703	85.83
970.066	85.44
970.429	85.86
970.792	85.21
971.155	85
971.518	84.88
971.88	84.97
972.243	85.47
972.605	85.07
972.968	84.97
973.33	85.56
973.692	85.68
974.055	85.73
974.417	85.43
974.779	85.71
975.141	84.79
975.503	85.27
975.865	85.03
976.226	85.92
976.588	85.18
976.95	84.84
977.312	84.12
977.673	85.9
978.035	85.24
978.396	85.99
978.757	84.55
979.119	86.29
979.48	84.48
979.841	85.81
980.202	86.24
980.563	86.04
980.924	85.75
981.285	85.09
981.646	85.78
982.007	84.23
982.367	83.89
982.728	85.38
983.089	85.36
983.449	84.97
983.81	84.66
984.17	85.55
984.53	85.69
984.89	83.66
985.251	85.59
985.611	85.26
985.971	85.22
986.331	84.39
986.691	85
987.05	84.39
987.41	84.69
987.77	85.01
988.13	84.7
988.489	86.33
988.849	84.97
989.208	85.14
989.567	84.86
989.927	85.48
990.286	84.93
990.645	84.39
991.004	84.34
991.363	83.64
991.722	84.28
992.081	84.25
992.44	84.77
992.799	83.19
993.157	83.57
993.516	83.74
993.875	83.65
994.233	84.62
994.592	85.41
994.95	83.87
995.308	83.88
995.667	83.58
996.025	84.78
996.383	84.56
996.741	84.6
997.099	85
997.457	83.13
997.815	83.62
998.172	85.27
998.53	84.14
998.888	85.05
999.245	83.8
999.603	83.76
999.96	83.95
1000.317	82.76
1000.675	83.02
1001.032	82.84
1001.389	84.39
1001.746	85.29
1002.103	84.28
1002.46	83.71
1002.817	84.82
1003.174	83.44
1003.531	82.77
1003.887	83.55
1004.244	84.65
1004.601	83.4
1004.957	84.55
1005.314	83.84
1005.67	84.42
1006.026	82.91
1006.382	83.95
1006.739	83.59
1007.095	83.17
1007.451	85.65
1007.807	84.29
1008.163	84.21
1008.518	83.89
1008.874	84.16
1009.23	82.68
1009.585	84.82
1009.941	83.77
1010.296	82.29
1010.652	82.96
1011.007	83.43
1011.362	83.72
1011.718	83.65
1012.073	84.02
1012.428	83.44
1012.783	83.98
1013.138	84.69
1013.493	84.64
1013.848	82.1
1014.202	84.25
1014.557	83.08
1014.912	83.4
1015.266	82.77
1015.621	82.79
1015.975	85.39
1016.329	84.1
1016.684	84.18
1017.038	86.28
1017.392	84.69
1017.746	83.49
1018.1	85.49
1018.454	86.52
1018.808	82.57
1019.162	86.54
1019.515	83.81
1019.869	85.52
1020.223	82.37
1020.576	83.15
1020.93	83.49
1021.283	83.62
1021.636	87.57
1021.99	82.88
1022.343	82.87
1022.696	84.81
1023.049	84.35
1023.402	83.7
1023.755	83.65
1024.108	84.27
1024.46	85.29
1024.813	85.86
1025.166	85.96
1025.518	84.68
1025.871	84.81
1026.223	82.89
1026.576	83.27
1026.928	82.04
1027.28	82.99
1027.632	84.31
1027.985	84.62
1028.337	82
1028.689	83.84
1029.04	84.09
1029.392	81
1029.744	87.77
1030.096	85.21
1030.447	84.31
1030.799	83.19
1031.15	84.5
1031.502	82.24
1031.853	82.32
1032.205	81.67
1032.556	85.9
1032.907	84.57
1033.258	84.57
1033.609	84.57
